xof 0302txt 0064
template Header {
 <3D82AB43-62DA-11cf-AB39-0020AF71E433>
 WORD major;
 WORD minor;
 DWORD flags;
}

template Vector {
 <3D82AB5E-62DA-11cf-AB39-0020AF71E433>
 FLOAT x;
 FLOAT y;
 FLOAT z;
}

template Coords2d {
 <F6F23F44-7686-11cf-8F52-0040333594A3>
 FLOAT u;
 FLOAT v;
}

template Matrix4x4 {
 <F6F23F45-7686-11cf-8F52-0040333594A3>
 array FLOAT matrix[16];
}

template ColorRGBA {
 <35FF44E0-6C7C-11cf-8F52-0040333594A3>
 FLOAT red;
 FLOAT green;
 FLOAT blue;
 FLOAT alpha;
}

template ColorRGB {
 <D3E16E81-7835-11cf-8F52-0040333594A3>
 FLOAT red;
 FLOAT green;
 FLOAT blue;
}

template IndexedColor {
 <1630B820-7842-11cf-8F52-0040333594A3>
 DWORD index;
 ColorRGBA indexColor;
}

template Boolean {
 <4885AE61-78E8-11cf-8F52-0040333594A3>
 WORD truefalse;
}

template Boolean2d {
 <4885AE63-78E8-11cf-8F52-0040333594A3>
 Boolean u;
 Boolean v;
}

template MaterialWrap {
 <4885AE60-78E8-11cf-8F52-0040333594A3>
 Boolean u;
 Boolean v;
}

template TextureFilename {
 <A42790E1-7810-11cf-8F52-0040333594A3>
 STRING filename;
}

template Material {
 <3D82AB4D-62DA-11cf-AB39-0020AF71E433>
 ColorRGBA faceColor;
 FLOAT power;
 ColorRGB specularColor;
 ColorRGB emissiveColor;
 [...]
}

template MeshFace {
 <3D82AB5F-62DA-11cf-AB39-0020AF71E433>
 DWORD nFaceVertexIndices;
 array DWORD faceVertexIndices[nFaceVertexIndices];
}

template MeshFaceWraps {
 <4885AE62-78E8-11cf-8F52-0040333594A3>
 DWORD nFaceWrapValues;
 Boolean2d faceWrapValues;
}

template MeshTextureCoords {
 <F6F23F40-7686-11cf-8F52-0040333594A3>
 DWORD nTextureCoords;
 array Coords2d textureCoords[nTextureCoords];
}

template MeshMaterialList {
 <F6F23F42-7686-11cf-8F52-0040333594A3>
 DWORD nMaterials;
 DWORD nFaceIndexes;
 array DWORD faceIndexes[nFaceIndexes];
 [Material]
}

template MeshNormals {
 <F6F23F43-7686-11cf-8F52-0040333594A3>
 DWORD nNormals;
 array Vector normals[nNormals];
 DWORD nFaceNormals;
 array MeshFace faceNormals[nFaceNormals];
}

template MeshVertexColors {
 <1630B821-7842-11cf-8F52-0040333594A3>
 DWORD nVertexColors;
 array IndexedColor vertexColors[nVertexColors];
}

template Mesh {
 <3D82AB44-62DA-11cf-AB39-0020AF71E433>
 DWORD nVertices;
 array Vector vertices[nVertices];
 DWORD nFaces;
 array MeshFace faces[nFaces];
 [...]
}

Header{
1;
0;
1;
}

Mesh {
 313;
 6.10940;-2.77501;-7.65162;,
 6.10940;-2.77501;7.65162;,
 6.10940;-1.53011;7.65162;,
 6.10940;-1.53011;-7.65162;,
 -6.17848;-2.77501;7.65162;,
 -6.17848;-2.77501;-7.65162;,
 -6.17848;-1.53011;-7.65162;,
 -6.17848;-1.53011;7.65162;,
 -5.06143;-0.78479;-7.65162;,
 -6.17848;-1.53011;-7.65162;,
 -6.17848;-2.77501;-7.65162;,
 -5.06143;-2.77501;-7.65162;,
 -3.54201;-2.77501;-7.65162;,
 -3.54201;-1.41024;-7.65162;,
 -5.06143;-0.78479;7.65162;,
 -6.17848;-1.53011;7.65162;,
 -6.17848;-2.77501;7.65162;,
 -5.06143;-2.77501;7.65162;,
 -3.54201;-2.77501;7.65162;,
 -3.54201;-1.41024;7.65162;,
 -5.06143;-0.78479;7.65162;,
 -3.54201;-1.41024;7.65162;,
 -1.83842;-2.77501;-7.65162;,
 -0.08879;-2.77501;-7.65162;,
 -0.08879;-1.41024;-7.65162;,
 -1.83842;-0.78479;-7.65162;,
 -1.83842;-2.77501;7.65162;,
 -0.08879;-2.77501;7.65162;,
 -0.08879;-1.41024;7.65162;,
 -1.83842;-0.78479;7.65162;,
 -0.08879;-1.41024;7.65162;,
 -1.83842;-0.78479;7.65162;,
 1.75293;-2.77501;-7.65162;,
 3.31838;-2.77501;-7.65162;,
 3.31838;-1.41024;-7.65162;,
 1.75293;-0.78479;-7.65162;,
 1.75293;-0.78479;7.65162;,
 3.31839;-1.41024;7.65162;,
 3.31839;-2.77501;7.65162;,
 1.75293;-2.77501;7.65162;,
 3.31839;-1.41024;7.65162;,
 1.75293;-0.78479;7.65162;,
 4.88385;-2.77501;-7.65163;,
 6.10940;-2.77501;-7.65162;,
 6.10940;-1.53011;-7.65162;,
 4.88385;-0.78479;-7.65163;,
 4.88385;-0.78479;7.65162;,
 6.10940;-1.53011;7.65162;,
 6.10940;-2.77501;7.65162;,
 4.88385;-2.77501;7.65162;,
 4.88385;-0.78479;7.65162;,
 4.88385;-0.78479;7.65162;,
 1.75293;-0.78479;7.65162;,
 3.31839;-1.41024;7.65162;,
 -1.83842;-0.78479;7.65162;,
 -0.08879;-1.41024;7.65162;,
 -5.06143;-0.78479;7.65162;,
 -3.54201;-1.41024;7.65162;,
 -5.06143;-0.78479;-7.65162;,
 -1.83842;-0.78479;-7.65162;,
 -3.54201;-1.41024;-7.65162;,
 1.75293;-0.78479;-7.65162;,
 -0.08879;-1.41024;-7.65162;,
 4.88385;-0.78479;-7.65163;,
 3.31838;-1.41024;-7.65162;,
 -6.20921;0.00171;7.53519;,
 6.14012;0.00171;7.53519;,
 6.14012;-2.65592;7.53519;,
 -6.20921;-2.65592;7.53519;,
 6.14012;0.00171;7.53519;,
 6.14012;0.00171;8.24394;,
 6.14012;-2.65592;8.24394;,
 6.14012;-2.65592;7.53519;,
 6.14012;0.00171;8.24394;,
 -6.20921;0.00171;8.24394;,
 -6.20921;-2.65592;8.24394;,
 6.14012;-2.65592;8.24394;,
 -6.20921;0.00171;8.24394;,
 -6.20921;0.00171;7.53519;,
 -6.20921;-2.65592;7.53519;,
 -6.20921;-2.65592;8.24394;,
 6.14012;0.00171;7.53519;,
 -6.20921;0.00171;7.53519;,
 -6.20921;-2.65592;7.53519;,
 6.14012;-2.65592;7.53519;,
 -6.20921;0.00171;-8.30285;,
 6.14012;0.00171;-8.30285;,
 6.14012;-2.65592;-8.30285;,
 -6.20921;-2.65592;-8.30285;,
 6.14012;0.00171;-8.30285;,
 6.14012;0.00171;-7.59411;,
 6.14012;-2.65592;-7.59411;,
 6.14012;-2.65592;-8.30285;,
 6.14012;0.00171;-7.59411;,
 -6.20921;0.00171;-7.59411;,
 -6.20921;-2.65592;-7.59411;,
 6.14012;-2.65592;-7.59411;,
 -6.20921;0.00171;-7.59411;,
 -6.20921;0.00171;-8.30285;,
 -6.20921;-2.65592;-8.30285;,
 -6.20921;-2.65592;-7.59411;,
 6.14012;0.00171;-8.30285;,
 -6.20921;0.00171;-8.30285;,
 -6.20921;-2.65592;-8.30285;,
 6.14012;-2.65592;-8.30285;,
 6.13755;0.00171;-8.24603;,
 6.63992;0.00171;-8.24603;,
 6.63992;-2.65592;-8.24603;,
 6.13755;-2.65592;-8.24603;,
 6.63992;0.00171;-8.24603;,
 6.63992;0.00171;8.24603;,
 6.63992;-2.65592;8.24603;,
 6.63992;-2.65592;-8.24603;,
 6.63992;0.00171;8.24603;,
 6.13755;0.00171;8.24603;,
 6.13755;-2.65592;8.24603;,
 6.63992;-2.65592;8.24603;,
 6.13755;0.00171;8.24603;,
 6.13755;0.00171;-8.24603;,
 6.13755;-2.65592;-8.24603;,
 6.13755;-2.65592;8.24603;,
 6.63992;0.00171;-8.24603;,
 6.13755;0.00171;-8.24603;,
 6.13755;-2.65592;-8.24603;,
 6.63992;-2.65592;-8.24603;,
 -6.54646;0.00171;-8.32870;,
 -6.04409;0.00171;-8.32870;,
 -6.04409;-2.65592;-8.32870;,
 -6.54646;-2.65592;-8.32870;,
 -6.04409;0.00171;-8.32870;,
 -6.04409;0.00171;8.32870;,
 -6.04409;-2.65592;8.32870;,
 -6.04409;-2.65592;-8.32870;,
 -6.04409;0.00171;8.32870;,
 -6.54646;0.00171;8.32870;,
 -6.54646;-2.65592;8.32870;,
 -6.04409;-2.65592;8.32870;,
 -6.54646;0.00171;8.32870;,
 -6.54646;0.00171;-8.32870;,
 -6.54646;-2.65592;-8.32870;,
 -6.54646;-2.65592;8.32870;,
 -6.04409;0.00171;-8.32870;,
 -6.54646;0.00171;-8.32870;,
 -6.54646;-2.65592;-8.32870;,
 -6.04409;-2.65592;-8.32870;,
 -5.03148;-2.20630;-7.57573;,
 -4.90983;-2.18704;-7.57573;,
 -4.90983;-2.18704;7.57562;,
 -5.03148;-2.20630;7.57562;,
 -4.80009;-2.13112;-7.57573;,
 -4.80009;-2.13112;7.57562;,
 -4.71300;-2.04403;-7.57573;,
 -4.71300;-2.04403;7.57562;,
 -4.65708;-1.93429;-7.57573;,
 -4.65708;-1.93428;7.57562;,
 -4.63781;-1.81264;-7.57573;,
 -4.63781;-1.81264;7.57562;,
 -4.65708;-1.69099;-7.57573;,
 -4.65708;-1.69099;7.57562;,
 -4.71300;-1.58124;-7.57573;,
 -4.71300;-1.58124;7.57562;,
 -4.80009;-1.49415;-7.57573;,
 -4.80009;-1.49415;7.57562;,
 -4.90983;-1.43824;-7.57573;,
 -4.90983;-1.43824;7.57562;,
 -5.03148;-1.41897;-7.57573;,
 -5.03148;-1.41897;7.57562;,
 -5.15313;-1.43824;-7.57573;,
 -5.15313;-1.43824;7.57562;,
 -5.26287;-1.49415;-7.57573;,
 -5.26287;-1.49415;7.57562;,
 -5.34996;-1.58124;-7.57573;,
 -5.34996;-1.58124;7.57562;,
 -5.40588;-1.69099;-7.57573;,
 -5.40588;-1.69099;7.57562;,
 -5.42515;-1.81264;-7.57573;,
 -5.42515;-1.81264;7.57562;,
 -5.40588;-1.93429;-7.57573;,
 -5.40588;-1.93429;7.57562;,
 -5.34996;-2.04403;-7.57573;,
 -5.34996;-2.04403;7.57562;,
 -5.26287;-2.13112;-7.57573;,
 -5.26287;-2.13112;7.57562;,
 -5.15313;-2.18704;-7.57573;,
 -5.15313;-2.18704;7.57562;,
 -5.03148;-2.20630;-7.57573;,
 -5.03148;-2.20630;7.57562;,
 -1.89351;-2.20630;-7.57573;,
 -1.77186;-2.18704;-7.57573;,
 -1.77186;-2.18704;7.57562;,
 -1.89351;-2.20630;7.57562;,
 -1.66212;-2.13112;-7.57573;,
 -1.66212;-2.13112;7.57562;,
 -1.57503;-2.04403;-7.57573;,
 -1.57503;-2.04403;7.57562;,
 -1.51911;-1.93429;-7.57573;,
 -1.51911;-1.93428;7.57562;,
 -1.49984;-1.81264;-7.57573;,
 -1.49984;-1.81264;7.57562;,
 -1.51911;-1.69099;-7.57573;,
 -1.51911;-1.69099;7.57562;,
 -1.57503;-1.58124;-7.57573;,
 -1.57503;-1.58124;7.57562;,
 -1.66212;-1.49415;-7.57573;,
 -1.66212;-1.49415;7.57562;,
 -1.77186;-1.43824;-7.57573;,
 -1.77186;-1.43824;7.57562;,
 -1.89351;-1.41897;-7.57573;,
 -1.89351;-1.41897;7.57562;,
 -2.01516;-1.43824;-7.57573;,
 -2.01516;-1.43824;7.57562;,
 -2.12490;-1.49415;-7.57573;,
 -2.12490;-1.49415;7.57562;,
 -2.21199;-1.58124;-7.57573;,
 -2.21199;-1.58124;7.57562;,
 -2.26791;-1.69099;-7.57573;,
 -2.26791;-1.69099;7.57562;,
 -2.28718;-1.81264;-7.57573;,
 -2.28718;-1.81264;7.57562;,
 -2.26791;-1.93429;-7.57573;,
 -2.26791;-1.93429;7.57562;,
 -2.21199;-2.04403;-7.57573;,
 -2.21199;-2.04403;7.57562;,
 -2.12490;-2.13112;-7.57573;,
 -2.12490;-2.13112;7.57562;,
 -2.01516;-2.18704;-7.57573;,
 -2.01516;-2.18704;7.57562;,
 -1.89351;-2.20630;-7.57573;,
 -1.89351;-2.20630;7.57562;,
 1.73345;-2.20630;-7.57573;,
 1.85510;-2.18704;-7.57573;,
 1.85510;-2.18704;7.57562;,
 1.73345;-2.20630;7.57562;,
 1.96484;-2.13112;-7.57573;,
 1.96484;-2.13112;7.57562;,
 2.05193;-2.04403;-7.57573;,
 2.05193;-2.04403;7.57562;,
 2.10785;-1.93429;-7.57573;,
 2.10785;-1.93428;7.57562;,
 2.12712;-1.81264;-7.57573;,
 2.12712;-1.81264;7.57562;,
 2.10785;-1.69099;-7.57573;,
 2.10785;-1.69099;7.57562;,
 2.05193;-1.58124;-7.57573;,
 2.05193;-1.58124;7.57562;,
 1.96484;-1.49415;-7.57573;,
 1.96484;-1.49415;7.57562;,
 1.85510;-1.43824;-7.57573;,
 1.85510;-1.43824;7.57562;,
 1.73345;-1.41897;-7.57573;,
 1.73345;-1.41897;7.57562;,
 1.61180;-1.43824;-7.57573;,
 1.61180;-1.43824;7.57562;,
 1.50206;-1.49415;-7.57573;,
 1.50206;-1.49415;7.57562;,
 1.41497;-1.58124;-7.57573;,
 1.41497;-1.58124;7.57562;,
 1.35905;-1.69099;-7.57573;,
 1.35905;-1.69099;7.57562;,
 1.33978;-1.81264;-7.57573;,
 1.33978;-1.81264;7.57562;,
 1.35905;-1.93429;-7.57573;,
 1.35905;-1.93429;7.57562;,
 1.41497;-2.04403;-7.57573;,
 1.41497;-2.04403;7.57562;,
 1.50206;-2.13112;-7.57573;,
 1.50206;-2.13112;7.57562;,
 1.61180;-2.18704;-7.57573;,
 1.61180;-2.18704;7.57562;,
 1.73345;-2.20630;-7.57573;,
 1.73345;-2.20630;7.57562;,
 4.90742;-2.20630;-7.57573;,
 5.02908;-2.18704;-7.57573;,
 5.02908;-2.18704;7.57562;,
 4.90742;-2.20630;7.57562;,
 5.13882;-2.13112;-7.57573;,
 5.13882;-2.13112;7.57562;,
 5.22590;-2.04403;-7.57573;,
 5.22590;-2.04403;7.57562;,
 5.28182;-1.93429;-7.57573;,
 5.28182;-1.93428;7.57562;,
 5.30109;-1.81264;-7.57573;,
 5.30109;-1.81264;7.57562;,
 5.28182;-1.69099;-7.57573;,
 5.28182;-1.69099;7.57562;,
 5.22590;-1.58124;-7.57573;,
 5.22590;-1.58124;7.57562;,
 5.13882;-1.49415;-7.57573;,
 5.13882;-1.49415;7.57562;,
 5.02908;-1.43824;-7.57573;,
 5.02908;-1.43824;7.57562;,
 4.90742;-1.41897;-7.57573;,
 4.90742;-1.41897;7.57562;,
 4.78577;-1.43824;-7.57573;,
 4.78577;-1.43824;7.57562;,
 4.67603;-1.49415;-7.57573;,
 4.67603;-1.49415;7.57562;,
 4.58894;-1.58124;-7.57573;,
 4.58894;-1.58124;7.57562;,
 4.53302;-1.69099;-7.57573;,
 4.53302;-1.69099;7.57562;,
 4.51376;-1.81264;-7.57573;,
 4.51376;-1.81264;7.57562;,
 4.53302;-1.93429;-7.57573;,
 4.53302;-1.93429;7.57562;,
 4.58894;-2.04403;-7.57573;,
 4.58894;-2.04403;7.57562;,
 4.67603;-2.13112;-7.57573;,
 4.67603;-2.13112;7.57562;,
 4.78577;-2.18704;-7.57573;,
 4.78577;-2.18704;7.57562;,
 4.90742;-2.20630;-7.57573;,
 4.90742;-2.20630;7.57562;;
 
 158;
 4;0,1,2,3;,
 4;4,5,6,7;,
 4;3,2,1,0;,
 4;7,6,5,4;,
 4;8,9,10,11;,
 4;11,12,13,8;,
 4;11,10,9,8;,
 4;8,13,12,11;,
 4;14,15,16,17;,
 4;17,18,19,14;,
 4;20,15,9,8;,
 4;8,13,21,20;,
 4;22,23,24,25;,
 4;25,13,12,22;,
 4;25,24,23,22;,
 4;22,12,13,25;,
 4;26,27,28,29;,
 4;29,19,18,26;,
 4;25,24,30,31;,
 4;31,21,13,25;,
 4;32,33,34,35;,
 4;35,24,23,32;,
 4;36,37,38,39;,
 4;39,27,28,36;,
 4;35,34,33,32;,
 4;32,23,24,35;,
 4;39,38,37,36;,
 4;36,28,27,39;,
 4;35,34,40,41;,
 4;41,30,24,35;,
 4;42,43,44,45;,
 4;45,34,33,42;,
 4;46,47,48,49;,
 4;49,38,37,46;,
 4;45,44,43,42;,
 4;42,33,34,45;,
 4;49,48,47,46;,
 4;46,37,38,49;,
 4;45,44,2,50;,
 4;50,40,34,45;,
 3;51,52,53;,
 3;52,54,55;,
 3;54,56,57;,
 3;58,59,60;,
 3;59,61,62;,
 3;61,63,64;,
 3;16,15,17;,
 3;15,14,17;,
 3;14,19,17;,
 3;19,18,17;,
 3;18,19,26;,
 3;19,29,26;,
 3;29,28,26;,
 3;28,27,26;,
 4;65,66,67,68;,
 4;69,70,71,72;,
 4;73,74,75,76;,
 4;77,78,79,80;,
 4;77,70,81,82;,
 4;83,84,71,80;,
 4;85,86,87,88;,
 4;89,90,91,92;,
 4;93,94,95,96;,
 4;97,98,99,100;,
 4;97,90,101,102;,
 4;103,104,91,100;,
 4;105,106,107,108;,
 4;109,110,111,112;,
 4;113,114,115,116;,
 4;117,118,119,120;,
 4;117,110,121,122;,
 4;123,124,111,120;,
 4;125,126,127,128;,
 4;129,130,131,132;,
 4;133,134,135,136;,
 4;137,138,139,140;,
 4;137,130,141,142;,
 4;143,144,131,140;,
 4;145,146,147,148;,
 4;146,149,150,147;,
 4;149,151,152,150;,
 4;151,153,154,152;,
 4;153,155,156,154;,
 4;155,157,158,156;,
 4;157,159,160,158;,
 4;159,161,162,160;,
 4;161,163,164,162;,
 4;163,165,166,164;,
 4;165,167,168,166;,
 4;167,169,170,168;,
 4;169,171,172,170;,
 4;171,173,174,172;,
 4;173,175,176,174;,
 4;175,177,178,176;,
 4;177,179,180,178;,
 4;179,181,182,180;,
 4;181,183,184,182;,
 4;183,185,186,184;,
 4;187,188,189,190;,
 4;188,191,192,189;,
 4;191,193,194,192;,
 4;193,195,196,194;,
 4;195,197,198,196;,
 4;197,199,200,198;,
 4;199,201,202,200;,
 4;201,203,204,202;,
 4;203,205,206,204;,
 4;205,207,208,206;,
 4;207,209,210,208;,
 4;209,211,212,210;,
 4;211,213,214,212;,
 4;213,215,216,214;,
 4;215,217,218,216;,
 4;217,219,220,218;,
 4;219,221,222,220;,
 4;221,223,224,222;,
 4;223,225,226,224;,
 4;225,227,228,226;,
 4;229,230,231,232;,
 4;230,233,234,231;,
 4;233,235,236,234;,
 4;235,237,238,236;,
 4;237,239,240,238;,
 4;239,241,242,240;,
 4;241,243,244,242;,
 4;243,245,246,244;,
 4;245,247,248,246;,
 4;247,249,250,248;,
 4;249,251,252,250;,
 4;251,253,254,252;,
 4;253,255,256,254;,
 4;255,257,258,256;,
 4;257,259,260,258;,
 4;259,261,262,260;,
 4;261,263,264,262;,
 4;263,265,266,264;,
 4;265,267,268,266;,
 4;267,269,270,268;,
 4;271,272,273,274;,
 4;272,275,276,273;,
 4;275,277,278,276;,
 4;277,279,280,278;,
 4;279,281,282,280;,
 4;281,283,284,282;,
 4;283,285,286,284;,
 4;285,287,288,286;,
 4;287,289,290,288;,
 4;289,291,292,290;,
 4;291,293,294,292;,
 4;293,295,296,294;,
 4;295,297,298,296;,
 4;297,299,300,298;,
 4;299,301,302,300;,
 4;301,303,304,302;,
 4;303,305,306,304;,
 4;305,307,308,306;,
 4;307,309,310,308;,
 4;309,311,312,310;;
 
 MeshMaterialList {
  2;
  158;
  0,
  0,
  0,
  0,
  0,
  0,
  0,
  0,
  0,
  0,
  0,
  0,
  0,
  0,
  0,
  0,
  0,
  0,
  0,
  0,
  0,
  0,
  0,
  0,
  0,
  0,
  0,
  0,
  0,
  0,
  0,
  0,
  0,
  0,
  0,
  0,
  0,
  0,
  0,
  0,
  0,
  0,
  0,
  0,
  0,
  0,
  0,
  0,
  0,
  0,
  0,
  0,
  0,
  0,
  0,
  0,
  0,
  0,
  0,
  0,
  0,
  0,
  0,
  0,
  0,
  0,
  0,
  0,
  0,
  0,
  0,
  0,
  0,
  0,
  0,
  0,
  0,
  0,
  1,
  1,
  1,
  1,
  1,
  1,
  1,
  1,
  1,
  1,
  1,
  1,
  1,
  1,
  1,
  1,
  1,
  1,
  1,
  1,
  1,
  1,
  1,
  1,
  1,
  1,
  1,
  1,
  1,
  1,
  1,
  1,
  1,
  1,
  1,
  1,
  1,
  1,
  1,
  1,
  1,
  1,
  1,
  1,
  1,
  1,
  1,
  1,
  1,
  1,
  1,
  1,
  1,
  1,
  1,
  1,
  1,
  1,
  1,
  1,
  1,
  1,
  1,
  1,
  1,
  1,
  1,
  1,
  1,
  1,
  1,
  1,
  1,
  1,
  1,
  1,
  1,
  1,
  1,
  1;;
  Material {
   0.450000;0.450000;0.450000;1.000000;;
   28.000000;
   0.350000;0.350000;0.350000;;
   0.320000;0.320000;0.320000;;
   TextureFilename {
    "FluorescentLightBase.png";
   }
  }
  Material {
   1.000000;1.000000;1.000000;1.000000;;
   100.000000;
   1.000000;1.000000;1.000000;;
   1.000000;1.000000;1.000000;;
   TextureFilename {
    "White.jpg";
   }
  }
 }
 MeshNormals {
  102;
  0.881765;-0.471689;-0.000000;,
  1.000000;0.000000;0.000000;,
  -0.871668;-0.490097;0.000000;,
  -1.000000;0.000000;0.000000;,
  0.000001;0.000000;1.000000;,
  0.000000;0.000000;-1.000000;,
  0.000000;0.000000;1.000000;,
  -0.000000;0.000000;1.000000;,
  0.098783;-0.995109;-0.000000;,
  -0.019318;-0.999813;0.000000;,
  0.004270;-0.999991;-0.000000;,
  -0.007969;-0.999968;0.000000;,
  -0.000000;-0.000001;-1.000000;,
  -0.000001;-0.000001;-1.000000;,
  -0.000001;0.000000;-1.000000;,
  -0.026357;-0.999653;0.000000;,
  -0.000000;-1.000000;-0.000000;,
  -0.000002;0.000000;1.000000;,
  -0.000000;-0.000001;-1.000000;,
  0.000002;0.000000;-1.000000;,
  0.000000;0.000000;-1.000000;,
  -0.083051;-0.996545;-0.000000;,
  0.000000;1.000000;0.000000;,
  0.000000;-1.000000;-0.000000;,
  -0.000001;-1.000000;0.000000;,
  0.309012;-0.951058;0.000000;,
  0.587800;-0.809006;0.000000;,
  0.809017;-0.587786;0.000000;,
  0.951048;-0.309042;0.000000;,
  1.000000;-0.000001;0.000000;,
  0.951051;0.309034;0.000000;,
  0.809012;0.587792;-0.000000;,
  0.587793;0.809011;-0.000000;,
  0.309032;0.951052;-0.000000;,
  0.000002;1.000000;0.000000;,
  -0.309026;0.951054;-0.000000;,
  -0.587794;0.809011;-0.000000;,
  -0.809024;0.587776;-0.000000;,
  -0.951050;0.309038;0.000000;,
  -1.000000;0.000000;0.000000;,
  -0.951047;-0.309046;0.000000;,
  -0.809025;-0.587774;0.000000;,
  -0.587789;-0.809014;0.000000;,
  -0.308999;-0.951062;0.000000;,
  -0.000002;-1.000000;0.000000;,
  0.309007;-0.951060;0.000000;,
  0.587786;-0.809016;0.000000;,
  0.809021;-0.587780;0.000000;,
  0.951053;-0.309029;0.000000;,
  1.000000;-0.000002;0.000000;,
  0.951055;0.309020;0.000000;,
  0.809016;0.587787;-0.000000;,
  0.587779;0.809021;-0.000000;,
  0.309027;0.951053;-0.000000;,
  -0.000002;1.000000;0.000000;,
  -0.309024;0.951054;-0.000000;,
  -0.587779;0.809022;-0.000000;,
  -0.809019;0.587782;-0.000000;,
  -0.951058;0.309012;0.000000;,
  -1.000000;-0.000004;0.000000;,
  -0.951055;-0.309021;0.000000;,
  -0.809023;-0.587778;0.000000;,
  -0.587782;-0.809019;0.000000;,
  -0.309004;-0.951061;0.000000;,
  -0.000001;-1.000000;0.000000;,
  0.309010;-0.951059;0.000000;,
  0.587784;-0.809018;0.000000;,
  0.809020;-0.587782;0.000000;,
  0.951055;-0.309021;0.000000;,
  1.000000;-0.000002;0.000000;,
  0.951058;0.309013;0.000000;,
  0.809015;0.587789;-0.000000;,
  0.587777;0.809023;-0.000000;,
  0.309031;0.951052;-0.000000;,
  -0.000001;1.000000;0.000000;,
  -0.309028;0.951053;-0.000000;,
  -0.587779;0.809021;-0.000000;,
  -0.809016;0.587787;-0.000000;,
  -0.951059;0.309009;0.000000;,
  -1.000000;0.000000;0.000000;,
  -0.951056;-0.309018;0.000000;,
  -0.809017;-0.587785;0.000000;,
  -0.309007;-0.951060;0.000000;,
  -0.000003;-1.000000;0.000000;,
  0.309005;-0.951060;0.000000;,
  0.587807;-0.809001;0.000000;,
  0.809019;-0.587783;0.000000;,
  0.951049;-0.309039;0.000000;,
  1.000000;-0.000002;0.000000;,
  0.951052;0.309030;0.000000;,
  0.809014;0.587790;-0.000000;,
  0.587800;0.809006;-0.000000;,
  0.309026;0.951054;-0.000000;,
  -0.000001;1.000000;0.000000;,
  -0.309037;0.951050;-0.000000;,
  -0.587796;0.809009;-0.000000;,
  -0.809021;0.587780;-0.000000;,
  -1.000000;0.000000;0.000000;,
  -0.951055;-0.309021;0.000000;,
  -0.809017;-0.587785;0.000000;,
  -0.587794;-0.809011;0.000000;,
  -0.309020;-0.951056;0.000000;;
  158;
  4;3,3,2,2;,
  4;1,1,0,0;,
  4;1,1,1,1;,
  4;3,3,3,3;,
  4;6,6,6,6;,
  4;6,6,6,6;,
  4;5,5,5,5;,
  4;5,5,5,5;,
  4;6,6,6,6;,
  4;6,6,6,6;,
  4;8,0,0,8;,
  4;8,9,9,8;,
  4;6,6,6,6;,
  4;6,6,6,6;,
  4;5,5,5,5;,
  4;5,5,5,5;,
  4;6,6,6,6;,
  4;6,6,6,6;,
  4;10,11,11,10;,
  4;10,9,9,10;,
  4;6,4,4,6;,
  4;6,6,6,6;,
  4;5,5,5,5;,
  4;5,5,5,5;,
  4;12,13,14,5;,
  4;5,5,5,12;,
  4;6,6,6,6;,
  4;6,6,6,6;,
  4;15,16,16,15;,
  4;15,11,11,15;,
  4;7,17,17,7;,
  4;7,4,4,7;,
  4;5,5,5,5;,
  4;5,5,5,5;,
  4;18,19,19,20;,
  4;20,14,13,18;,
  4;6,6,6,6;,
  4;6,6,6,6;,
  4;21,2,2,21;,
  4;21,16,16,21;,
  3;6,6,6;,
  3;6,6,6;,
  3;6,6,6;,
  3;5,5,5;,
  3;5,12,5;,
  3;12,18,13;,
  3;5,5,5;,
  3;5,5,5;,
  3;5,5,5;,
  3;5,5,5;,
  3;5,5,5;,
  3;5,5,5;,
  3;5,5,5;,
  3;5,5,5;,
  4;5,5,5,5;,
  4;1,1,1,1;,
  4;6,6,6,6;,
  4;3,3,3,3;,
  4;22,22,22,22;,
  4;23,23,23,23;,
  4;5,5,5,5;,
  4;1,1,1,1;,
  4;6,6,6,6;,
  4;3,3,3,3;,
  4;22,22,22,22;,
  4;23,23,23,23;,
  4;5,5,5,5;,
  4;1,1,1,1;,
  4;6,6,6,6;,
  4;3,3,3,3;,
  4;22,22,22,22;,
  4;23,23,23,23;,
  4;5,5,5,5;,
  4;1,1,1,1;,
  4;6,6,6,6;,
  4;3,3,3,3;,
  4;22,22,22,22;,
  4;23,23,23,23;,
  4;24,25,25,24;,
  4;25,26,26,25;,
  4;26,27,27,26;,
  4;27,28,28,27;,
  4;28,29,29,28;,
  4;29,30,30,29;,
  4;30,31,31,30;,
  4;31,32,32,31;,
  4;32,33,33,32;,
  4;33,34,34,33;,
  4;34,35,35,34;,
  4;35,36,36,35;,
  4;36,37,37,36;,
  4;37,38,38,37;,
  4;38,39,39,38;,
  4;39,40,40,39;,
  4;40,41,41,40;,
  4;41,42,42,41;,
  4;42,43,43,42;,
  4;43,24,24,43;,
  4;44,45,45,44;,
  4;45,46,46,45;,
  4;46,47,47,46;,
  4;47,48,48,47;,
  4;48,49,49,48;,
  4;49,50,50,49;,
  4;50,51,51,50;,
  4;51,52,52,51;,
  4;52,53,53,52;,
  4;53,54,54,53;,
  4;54,55,55,54;,
  4;55,56,56,55;,
  4;56,57,57,56;,
  4;57,58,58,57;,
  4;58,59,59,58;,
  4;59,60,60,59;,
  4;60,61,61,60;,
  4;61,62,62,61;,
  4;62,63,63,62;,
  4;63,44,44,63;,
  4;64,65,65,64;,
  4;65,66,66,65;,
  4;66,67,67,66;,
  4;67,68,68,67;,
  4;68,69,69,68;,
  4;69,70,70,69;,
  4;70,71,71,70;,
  4;71,72,72,71;,
  4;72,73,73,72;,
  4;73,74,74,73;,
  4;74,75,75,74;,
  4;75,76,76,75;,
  4;76,77,77,76;,
  4;77,78,78,77;,
  4;78,79,79,78;,
  4;79,80,80,79;,
  4;80,81,81,80;,
  4;81,62,62,81;,
  4;62,82,82,62;,
  4;82,64,64,82;,
  4;83,84,84,83;,
  4;84,85,85,84;,
  4;85,86,86,85;,
  4;86,87,87,86;,
  4;87,88,88,87;,
  4;88,89,89,88;,
  4;89,90,90,89;,
  4;90,91,91,90;,
  4;91,92,92,91;,
  4;92,93,93,92;,
  4;93,94,94,93;,
  4;94,95,95,94;,
  4;95,96,96,95;,
  4;96,58,58,96;,
  4;58,97,97,58;,
  4;97,98,98,97;,
  4;98,99,99,98;,
  4;99,100,100,99;,
  4;100,101,101,100;,
  4;101,83,83,101;;
 }
 MeshTextureCoords {
  313;
  0.000000;1.000000;,
  1.000000;1.000000;,
  1.000000;0.000000;,
  0.000000;0.000000;,
  0.000000;1.000000;,
  1.000000;1.000000;,
  1.000000;0.000000;,
  0.000000;0.000000;,
  0.090910;0.000000;,
  0.000000;0.000000;,
  0.000000;1.000000;,
  0.090910;1.000000;,
  0.214560;1.000000;,
  0.214560;0.000000;,
  0.909090;0.000000;,
  1.000000;0.000000;,
  1.000000;1.000000;,
  0.909090;1.000000;,
  0.785440;1.000000;,
  0.785440;0.000000;,
  1.000000;0.000000;,
  1.000000;0.000000;,
  0.353200;1.000000;,
  0.495590;1.000000;,
  0.495590;0.000000;,
  0.353200;0.000000;,
  0.646800;1.000000;,
  0.504410;1.000000;,
  0.504410;0.000000;,
  0.646800;0.000000;,
  1.000000;0.000000;,
  1.000000;0.000000;,
  0.645470;1.000000;,
  0.772860;1.000000;,
  0.772860;0.000000;,
  0.645470;0.000000;,
  0.354530;0.000000;,
  0.227140;0.000000;,
  0.227140;1.000000;,
  0.354530;1.000000;,
  1.000000;0.000000;,
  1.000000;0.000000;,
  0.900260;1.000000;,
  1.000000;1.000000;,
  1.000000;0.000000;,
  0.900260;0.000000;,
  0.099740;0.000000;,
  0.000000;0.000000;,
  0.000000;1.000000;,
  0.099740;1.000000;,
  1.000000;0.000000;,
  0.000000;0.000000;,
  0.000000;0.000000;,
  0.000000;0.000000;,
  0.000000;0.000000;,
  0.000000;0.000000;,
  0.000000;0.000000;,
  0.000000;0.000000;,
  0.000000;0.000000;,
  0.000000;0.000000;,
  0.000000;0.000000;,
  0.000000;0.000000;,
  0.000000;0.000000;,
  0.000000;0.000000;,
  0.000000;0.000000;,
  0.000000;0.000000;,
  1.000000;0.000000;,
  1.000000;1.000000;,
  0.000000;1.000000;,
  0.000000;0.000000;,
  1.000000;0.000000;,
  1.000000;1.000000;,
  0.000000;1.000000;,
  0.000000;0.000000;,
  1.000000;0.000000;,
  1.000000;1.000000;,
  0.000000;1.000000;,
  0.000000;0.000000;,
  1.000000;0.000000;,
  1.000000;1.000000;,
  0.000000;1.000000;,
  1.000000;1.000000;,
  0.000000;1.000000;,
  0.000000;0.000000;,
  1.000000;0.000000;,
  0.000000;0.000000;,
  1.000000;0.000000;,
  1.000000;1.000000;,
  0.000000;1.000000;,
  0.000000;0.000000;,
  1.000000;0.000000;,
  1.000000;1.000000;,
  0.000000;1.000000;,
  0.000000;0.000000;,
  1.000000;0.000000;,
  1.000000;1.000000;,
  0.000000;1.000000;,
  0.000000;0.000000;,
  1.000000;0.000000;,
  1.000000;1.000000;,
  0.000000;1.000000;,
  1.000000;1.000000;,
  0.000000;1.000000;,
  0.000000;0.000000;,
  1.000000;0.000000;,
  0.000000;0.000000;,
  1.000000;0.000000;,
  1.000000;1.000000;,
  0.000000;1.000000;,
  0.000000;0.000000;,
  1.000000;0.000000;,
  1.000000;1.000000;,
  0.000000;1.000000;,
  0.000000;0.000000;,
  1.000000;0.000000;,
  1.000000;1.000000;,
  0.000000;1.000000;,
  0.000000;0.000000;,
  1.000000;0.000000;,
  1.000000;1.000000;,
  0.000000;1.000000;,
  1.000000;1.000000;,
  0.000000;1.000000;,
  0.000000;0.000000;,
  1.000000;0.000000;,
  0.000000;0.000000;,
  1.000000;0.000000;,
  1.000000;1.000000;,
  0.000000;1.000000;,
  0.000000;0.000000;,
  1.000000;0.000000;,
  1.000000;1.000000;,
  0.000000;1.000000;,
  0.000000;0.000000;,
  1.000000;0.000000;,
  1.000000;1.000000;,
  0.000000;1.000000;,
  0.000000;0.000000;,
  1.000000;0.000000;,
  1.000000;1.000000;,
  0.000000;1.000000;,
  1.000000;1.000000;,
  0.000000;1.000000;,
  0.000000;0.000000;,
  1.000000;0.000000;,
  0.000000;0.000000;,
  0.050000;0.000000;,
  0.050000;1.000000;,
  0.000000;1.000000;,
  0.100000;0.000000;,
  0.100000;1.000000;,
  0.150000;0.000000;,
  0.150000;1.000000;,
  0.200000;0.000000;,
  0.200000;1.000000;,
  0.250000;0.000000;,
  0.250000;1.000000;,
  0.300000;0.000000;,
  0.300000;1.000000;,
  0.350000;0.000000;,
  0.350000;1.000000;,
  0.400000;0.000000;,
  0.400000;1.000000;,
  0.450000;0.000000;,
  0.450000;1.000000;,
  0.500000;0.000000;,
  0.500000;1.000000;,
  0.550000;0.000000;,
  0.550000;1.000000;,
  0.600000;0.000000;,
  0.600000;1.000000;,
  0.650000;0.000000;,
  0.650000;1.000000;,
  0.700000;0.000000;,
  0.700000;1.000000;,
  0.750000;0.000000;,
  0.750000;1.000000;,
  0.800000;0.000000;,
  0.800000;1.000000;,
  0.850000;0.000000;,
  0.850000;1.000000;,
  0.900000;0.000000;,
  0.900000;1.000000;,
  0.950000;0.000000;,
  0.950000;1.000000;,
  1.000000;0.000000;,
  1.000000;1.000000;,
  0.000000;0.000000;,
  0.050000;0.000000;,
  0.050000;1.000000;,
  0.000000;1.000000;,
  0.100000;0.000000;,
  0.100000;1.000000;,
  0.150000;0.000000;,
  0.150000;1.000000;,
  0.200000;0.000000;,
  0.200000;1.000000;,
  0.250000;0.000000;,
  0.250000;1.000000;,
  0.300000;0.000000;,
  0.300000;1.000000;,
  0.350000;0.000000;,
  0.350000;1.000000;,
  0.400000;0.000000;,
  0.400000;1.000000;,
  0.450000;0.000000;,
  0.450000;1.000000;,
  0.500000;0.000000;,
  0.500000;1.000000;,
  0.550000;0.000000;,
  0.550000;1.000000;,
  0.600000;0.000000;,
  0.600000;1.000000;,
  0.650000;0.000000;,
  0.650000;1.000000;,
  0.700000;0.000000;,
  0.700000;1.000000;,
  0.750000;0.000000;,
  0.750000;1.000000;,
  0.800000;0.000000;,
  0.800000;1.000000;,
  0.850000;0.000000;,
  0.850000;1.000000;,
  0.900000;0.000000;,
  0.900000;1.000000;,
  0.950000;0.000000;,
  0.950000;1.000000;,
  1.000000;0.000000;,
  1.000000;1.000000;,
  0.000000;0.000000;,
  0.050000;0.000000;,
  0.050000;1.000000;,
  0.000000;1.000000;,
  0.100000;0.000000;,
  0.100000;1.000000;,
  0.150000;0.000000;,
  0.150000;1.000000;,
  0.200000;0.000000;,
  0.200000;1.000000;,
  0.250000;0.000000;,
  0.250000;1.000000;,
  0.300000;0.000000;,
  0.300000;1.000000;,
  0.350000;0.000000;,
  0.350000;1.000000;,
  0.400000;0.000000;,
  0.400000;1.000000;,
  0.450000;0.000000;,
  0.450000;1.000000;,
  0.500000;0.000000;,
  0.500000;1.000000;,
  0.550000;0.000000;,
  0.550000;1.000000;,
  0.600000;0.000000;,
  0.600000;1.000000;,
  0.650000;0.000000;,
  0.650000;1.000000;,
  0.700000;0.000000;,
  0.700000;1.000000;,
  0.750000;0.000000;,
  0.750000;1.000000;,
  0.800000;0.000000;,
  0.800000;1.000000;,
  0.850000;0.000000;,
  0.850000;1.000000;,
  0.900000;0.000000;,
  0.900000;1.000000;,
  0.950000;0.000000;,
  0.950000;1.000000;,
  1.000000;0.000000;,
  1.000000;1.000000;,
  0.000000;0.000000;,
  0.050000;0.000000;,
  0.050000;1.000000;,
  0.000000;1.000000;,
  0.100000;0.000000;,
  0.100000;1.000000;,
  0.150000;0.000000;,
  0.150000;1.000000;,
  0.200000;0.000000;,
  0.200000;1.000000;,
  0.250000;0.000000;,
  0.250000;1.000000;,
  0.300000;0.000000;,
  0.300000;1.000000;,
  0.350000;0.000000;,
  0.350000;1.000000;,
  0.400000;0.000000;,
  0.400000;1.000000;,
  0.450000;0.000000;,
  0.450000;1.000000;,
  0.500000;0.000000;,
  0.500000;1.000000;,
  0.550000;0.000000;,
  0.550000;1.000000;,
  0.600000;0.000000;,
  0.600000;1.000000;,
  0.650000;0.000000;,
  0.650000;1.000000;,
  0.700000;0.000000;,
  0.700000;1.000000;,
  0.750000;0.000000;,
  0.750000;1.000000;,
  0.800000;0.000000;,
  0.800000;1.000000;,
  0.850000;0.000000;,
  0.850000;1.000000;,
  0.900000;0.000000;,
  0.900000;1.000000;,
  0.950000;0.000000;,
  0.950000;1.000000;,
  1.000000;0.000000;,
  1.000000;1.000000;;
 }
 MeshVertexColors {
  313;
  0;1.000000;1.000000;1.000000;1.000000;,
  1;1.000000;1.000000;1.000000;1.000000;,
  2;1.000000;1.000000;1.000000;1.000000;,
  3;1.000000;1.000000;1.000000;1.000000;,
  4;1.000000;1.000000;1.000000;1.000000;,
  5;1.000000;1.000000;1.000000;1.000000;,
  6;1.000000;1.000000;1.000000;1.000000;,
  7;1.000000;1.000000;1.000000;1.000000;,
  8;1.000000;1.000000;1.000000;1.000000;,
  9;1.000000;1.000000;1.000000;1.000000;,
  10;1.000000;1.000000;1.000000;1.000000;,
  11;1.000000;1.000000;1.000000;1.000000;,
  12;1.000000;1.000000;1.000000;1.000000;,
  13;1.000000;1.000000;1.000000;1.000000;,
  14;1.000000;1.000000;1.000000;1.000000;,
  15;1.000000;1.000000;1.000000;1.000000;,
  16;1.000000;1.000000;1.000000;1.000000;,
  17;1.000000;1.000000;1.000000;1.000000;,
  18;1.000000;1.000000;1.000000;1.000000;,
  19;1.000000;1.000000;1.000000;1.000000;,
  20;1.000000;1.000000;1.000000;1.000000;,
  21;1.000000;1.000000;1.000000;1.000000;,
  22;1.000000;1.000000;1.000000;1.000000;,
  23;1.000000;1.000000;1.000000;1.000000;,
  24;1.000000;1.000000;1.000000;1.000000;,
  25;1.000000;1.000000;1.000000;1.000000;,
  26;1.000000;1.000000;1.000000;1.000000;,
  27;1.000000;1.000000;1.000000;1.000000;,
  28;1.000000;1.000000;1.000000;1.000000;,
  29;1.000000;1.000000;1.000000;1.000000;,
  30;1.000000;1.000000;1.000000;1.000000;,
  31;1.000000;1.000000;1.000000;1.000000;,
  32;1.000000;1.000000;1.000000;1.000000;,
  33;1.000000;1.000000;1.000000;1.000000;,
  34;1.000000;1.000000;1.000000;1.000000;,
  35;1.000000;1.000000;1.000000;1.000000;,
  36;1.000000;1.000000;1.000000;1.000000;,
  37;1.000000;1.000000;1.000000;1.000000;,
  38;1.000000;1.000000;1.000000;1.000000;,
  39;1.000000;1.000000;1.000000;1.000000;,
  40;1.000000;1.000000;1.000000;1.000000;,
  41;1.000000;1.000000;1.000000;1.000000;,
  42;1.000000;1.000000;1.000000;1.000000;,
  43;1.000000;1.000000;1.000000;1.000000;,
  44;1.000000;1.000000;1.000000;1.000000;,
  45;1.000000;1.000000;1.000000;1.000000;,
  46;1.000000;1.000000;1.000000;1.000000;,
  47;1.000000;1.000000;1.000000;1.000000;,
  48;1.000000;1.000000;1.000000;1.000000;,
  49;1.000000;1.000000;1.000000;1.000000;,
  50;1.000000;1.000000;1.000000;1.000000;,
  51;1.000000;1.000000;1.000000;1.000000;,
  52;1.000000;1.000000;1.000000;1.000000;,
  53;1.000000;1.000000;1.000000;1.000000;,
  54;1.000000;1.000000;1.000000;1.000000;,
  55;1.000000;1.000000;1.000000;1.000000;,
  56;1.000000;1.000000;1.000000;1.000000;,
  57;1.000000;1.000000;1.000000;1.000000;,
  58;1.000000;1.000000;1.000000;1.000000;,
  59;1.000000;1.000000;1.000000;1.000000;,
  60;1.000000;1.000000;1.000000;1.000000;,
  61;1.000000;1.000000;1.000000;1.000000;,
  62;1.000000;1.000000;1.000000;1.000000;,
  63;1.000000;1.000000;1.000000;1.000000;,
  64;1.000000;1.000000;1.000000;1.000000;,
  65;1.000000;1.000000;1.000000;1.000000;,
  66;1.000000;1.000000;1.000000;1.000000;,
  67;1.000000;1.000000;1.000000;1.000000;,
  68;1.000000;1.000000;1.000000;1.000000;,
  69;1.000000;1.000000;1.000000;1.000000;,
  70;1.000000;1.000000;1.000000;1.000000;,
  71;1.000000;1.000000;1.000000;1.000000;,
  72;1.000000;1.000000;1.000000;1.000000;,
  73;1.000000;1.000000;1.000000;1.000000;,
  74;1.000000;1.000000;1.000000;1.000000;,
  75;1.000000;1.000000;1.000000;1.000000;,
  76;1.000000;1.000000;1.000000;1.000000;,
  77;1.000000;1.000000;1.000000;1.000000;,
  78;1.000000;1.000000;1.000000;1.000000;,
  79;1.000000;1.000000;1.000000;1.000000;,
  80;1.000000;1.000000;1.000000;1.000000;,
  81;1.000000;1.000000;1.000000;1.000000;,
  82;1.000000;1.000000;1.000000;1.000000;,
  83;1.000000;1.000000;1.000000;1.000000;,
  84;1.000000;1.000000;1.000000;1.000000;,
  85;1.000000;1.000000;1.000000;1.000000;,
  86;1.000000;1.000000;1.000000;1.000000;,
  87;1.000000;1.000000;1.000000;1.000000;,
  88;1.000000;1.000000;1.000000;1.000000;,
  89;1.000000;1.000000;1.000000;1.000000;,
  90;1.000000;1.000000;1.000000;1.000000;,
  91;1.000000;1.000000;1.000000;1.000000;,
  92;1.000000;1.000000;1.000000;1.000000;,
  93;1.000000;1.000000;1.000000;1.000000;,
  94;1.000000;1.000000;1.000000;1.000000;,
  95;1.000000;1.000000;1.000000;1.000000;,
  96;1.000000;1.000000;1.000000;1.000000;,
  97;1.000000;1.000000;1.000000;1.000000;,
  98;1.000000;1.000000;1.000000;1.000000;,
  99;1.000000;1.000000;1.000000;1.000000;,
  100;1.000000;1.000000;1.000000;1.000000;,
  101;1.000000;1.000000;1.000000;1.000000;,
  102;1.000000;1.000000;1.000000;1.000000;,
  103;1.000000;1.000000;1.000000;1.000000;,
  104;1.000000;1.000000;1.000000;1.000000;,
  105;1.000000;1.000000;1.000000;1.000000;,
  106;1.000000;1.000000;1.000000;1.000000;,
  107;1.000000;1.000000;1.000000;1.000000;,
  108;1.000000;1.000000;1.000000;1.000000;,
  109;1.000000;1.000000;1.000000;1.000000;,
  110;1.000000;1.000000;1.000000;1.000000;,
  111;1.000000;1.000000;1.000000;1.000000;,
  112;1.000000;1.000000;1.000000;1.000000;,
  113;1.000000;1.000000;1.000000;1.000000;,
  114;1.000000;1.000000;1.000000;1.000000;,
  115;1.000000;1.000000;1.000000;1.000000;,
  116;1.000000;1.000000;1.000000;1.000000;,
  117;1.000000;1.000000;1.000000;1.000000;,
  118;1.000000;1.000000;1.000000;1.000000;,
  119;1.000000;1.000000;1.000000;1.000000;,
  120;1.000000;1.000000;1.000000;1.000000;,
  121;1.000000;1.000000;1.000000;1.000000;,
  122;1.000000;1.000000;1.000000;1.000000;,
  123;1.000000;1.000000;1.000000;1.000000;,
  124;1.000000;1.000000;1.000000;1.000000;,
  125;1.000000;1.000000;1.000000;1.000000;,
  126;1.000000;1.000000;1.000000;1.000000;,
  127;1.000000;1.000000;1.000000;1.000000;,
  128;1.000000;1.000000;1.000000;1.000000;,
  129;1.000000;1.000000;1.000000;1.000000;,
  130;1.000000;1.000000;1.000000;1.000000;,
  131;1.000000;1.000000;1.000000;1.000000;,
  132;1.000000;1.000000;1.000000;1.000000;,
  133;1.000000;1.000000;1.000000;1.000000;,
  134;1.000000;1.000000;1.000000;1.000000;,
  135;1.000000;1.000000;1.000000;1.000000;,
  136;1.000000;1.000000;1.000000;1.000000;,
  137;1.000000;1.000000;1.000000;1.000000;,
  138;1.000000;1.000000;1.000000;1.000000;,
  139;1.000000;1.000000;1.000000;1.000000;,
  140;1.000000;1.000000;1.000000;1.000000;,
  141;1.000000;1.000000;1.000000;1.000000;,
  142;1.000000;1.000000;1.000000;1.000000;,
  143;1.000000;1.000000;1.000000;1.000000;,
  144;1.000000;1.000000;1.000000;1.000000;,
  145;1.000000;1.000000;1.000000;1.000000;,
  146;1.000000;1.000000;1.000000;1.000000;,
  147;1.000000;1.000000;1.000000;1.000000;,
  148;1.000000;1.000000;1.000000;1.000000;,
  149;1.000000;1.000000;1.000000;1.000000;,
  150;1.000000;1.000000;1.000000;1.000000;,
  151;1.000000;1.000000;1.000000;1.000000;,
  152;1.000000;1.000000;1.000000;1.000000;,
  153;1.000000;1.000000;1.000000;1.000000;,
  154;1.000000;1.000000;1.000000;1.000000;,
  155;1.000000;1.000000;1.000000;1.000000;,
  156;1.000000;1.000000;1.000000;1.000000;,
  157;1.000000;1.000000;1.000000;1.000000;,
  158;1.000000;1.000000;1.000000;1.000000;,
  159;1.000000;1.000000;1.000000;1.000000;,
  160;1.000000;1.000000;1.000000;1.000000;,
  161;1.000000;1.000000;1.000000;1.000000;,
  162;1.000000;1.000000;1.000000;1.000000;,
  163;1.000000;1.000000;1.000000;1.000000;,
  164;1.000000;1.000000;1.000000;1.000000;,
  165;1.000000;1.000000;1.000000;1.000000;,
  166;1.000000;1.000000;1.000000;1.000000;,
  167;1.000000;1.000000;1.000000;1.000000;,
  168;1.000000;1.000000;1.000000;1.000000;,
  169;1.000000;1.000000;1.000000;1.000000;,
  170;1.000000;1.000000;1.000000;1.000000;,
  171;1.000000;1.000000;1.000000;1.000000;,
  172;1.000000;1.000000;1.000000;1.000000;,
  173;1.000000;1.000000;1.000000;1.000000;,
  174;1.000000;1.000000;1.000000;1.000000;,
  175;1.000000;1.000000;1.000000;1.000000;,
  176;1.000000;1.000000;1.000000;1.000000;,
  177;1.000000;1.000000;1.000000;1.000000;,
  178;1.000000;1.000000;1.000000;1.000000;,
  179;1.000000;1.000000;1.000000;1.000000;,
  180;1.000000;1.000000;1.000000;1.000000;,
  181;1.000000;1.000000;1.000000;1.000000;,
  182;1.000000;1.000000;1.000000;1.000000;,
  183;1.000000;1.000000;1.000000;1.000000;,
  184;1.000000;1.000000;1.000000;1.000000;,
  185;1.000000;1.000000;1.000000;1.000000;,
  186;1.000000;1.000000;1.000000;1.000000;,
  187;1.000000;1.000000;1.000000;1.000000;,
  188;1.000000;1.000000;1.000000;1.000000;,
  189;1.000000;1.000000;1.000000;1.000000;,
  190;1.000000;1.000000;1.000000;1.000000;,
  191;1.000000;1.000000;1.000000;1.000000;,
  192;1.000000;1.000000;1.000000;1.000000;,
  193;1.000000;1.000000;1.000000;1.000000;,
  194;1.000000;1.000000;1.000000;1.000000;,
  195;1.000000;1.000000;1.000000;1.000000;,
  196;1.000000;1.000000;1.000000;1.000000;,
  197;1.000000;1.000000;1.000000;1.000000;,
  198;1.000000;1.000000;1.000000;1.000000;,
  199;1.000000;1.000000;1.000000;1.000000;,
  200;1.000000;1.000000;1.000000;1.000000;,
  201;1.000000;1.000000;1.000000;1.000000;,
  202;1.000000;1.000000;1.000000;1.000000;,
  203;1.000000;1.000000;1.000000;1.000000;,
  204;1.000000;1.000000;1.000000;1.000000;,
  205;1.000000;1.000000;1.000000;1.000000;,
  206;1.000000;1.000000;1.000000;1.000000;,
  207;1.000000;1.000000;1.000000;1.000000;,
  208;1.000000;1.000000;1.000000;1.000000;,
  209;1.000000;1.000000;1.000000;1.000000;,
  210;1.000000;1.000000;1.000000;1.000000;,
  211;1.000000;1.000000;1.000000;1.000000;,
  212;1.000000;1.000000;1.000000;1.000000;,
  213;1.000000;1.000000;1.000000;1.000000;,
  214;1.000000;1.000000;1.000000;1.000000;,
  215;1.000000;1.000000;1.000000;1.000000;,
  216;1.000000;1.000000;1.000000;1.000000;,
  217;1.000000;1.000000;1.000000;1.000000;,
  218;1.000000;1.000000;1.000000;1.000000;,
  219;1.000000;1.000000;1.000000;1.000000;,
  220;1.000000;1.000000;1.000000;1.000000;,
  221;1.000000;1.000000;1.000000;1.000000;,
  222;1.000000;1.000000;1.000000;1.000000;,
  223;1.000000;1.000000;1.000000;1.000000;,
  224;1.000000;1.000000;1.000000;1.000000;,
  225;1.000000;1.000000;1.000000;1.000000;,
  226;1.000000;1.000000;1.000000;1.000000;,
  227;1.000000;1.000000;1.000000;1.000000;,
  228;1.000000;1.000000;1.000000;1.000000;,
  229;1.000000;1.000000;1.000000;1.000000;,
  230;1.000000;1.000000;1.000000;1.000000;,
  231;1.000000;1.000000;1.000000;1.000000;,
  232;1.000000;1.000000;1.000000;1.000000;,
  233;1.000000;1.000000;1.000000;1.000000;,
  234;1.000000;1.000000;1.000000;1.000000;,
  235;1.000000;1.000000;1.000000;1.000000;,
  236;1.000000;1.000000;1.000000;1.000000;,
  237;1.000000;1.000000;1.000000;1.000000;,
  238;1.000000;1.000000;1.000000;1.000000;,
  239;1.000000;1.000000;1.000000;1.000000;,
  240;1.000000;1.000000;1.000000;1.000000;,
  241;1.000000;1.000000;1.000000;1.000000;,
  242;1.000000;1.000000;1.000000;1.000000;,
  243;1.000000;1.000000;1.000000;1.000000;,
  244;1.000000;1.000000;1.000000;1.000000;,
  245;1.000000;1.000000;1.000000;1.000000;,
  246;1.000000;1.000000;1.000000;1.000000;,
  247;1.000000;1.000000;1.000000;1.000000;,
  248;1.000000;1.000000;1.000000;1.000000;,
  249;1.000000;1.000000;1.000000;1.000000;,
  250;1.000000;1.000000;1.000000;1.000000;,
  251;1.000000;1.000000;1.000000;1.000000;,
  252;1.000000;1.000000;1.000000;1.000000;,
  253;1.000000;1.000000;1.000000;1.000000;,
  254;1.000000;1.000000;1.000000;1.000000;,
  255;1.000000;1.000000;1.000000;1.000000;,
  256;1.000000;1.000000;1.000000;1.000000;,
  257;1.000000;1.000000;1.000000;1.000000;,
  258;1.000000;1.000000;1.000000;1.000000;,
  259;1.000000;1.000000;1.000000;1.000000;,
  260;1.000000;1.000000;1.000000;1.000000;,
  261;1.000000;1.000000;1.000000;1.000000;,
  262;1.000000;1.000000;1.000000;1.000000;,
  263;1.000000;1.000000;1.000000;1.000000;,
  264;1.000000;1.000000;1.000000;1.000000;,
  265;1.000000;1.000000;1.000000;1.000000;,
  266;1.000000;1.000000;1.000000;1.000000;,
  267;1.000000;1.000000;1.000000;1.000000;,
  268;1.000000;1.000000;1.000000;1.000000;,
  269;1.000000;1.000000;1.000000;1.000000;,
  270;1.000000;1.000000;1.000000;1.000000;,
  271;1.000000;1.000000;1.000000;1.000000;,
  272;1.000000;1.000000;1.000000;1.000000;,
  273;1.000000;1.000000;1.000000;1.000000;,
  274;1.000000;1.000000;1.000000;1.000000;,
  275;1.000000;1.000000;1.000000;1.000000;,
  276;1.000000;1.000000;1.000000;1.000000;,
  277;1.000000;1.000000;1.000000;1.000000;,
  278;1.000000;1.000000;1.000000;1.000000;,
  279;1.000000;1.000000;1.000000;1.000000;,
  280;1.000000;1.000000;1.000000;1.000000;,
  281;1.000000;1.000000;1.000000;1.000000;,
  282;1.000000;1.000000;1.000000;1.000000;,
  283;1.000000;1.000000;1.000000;1.000000;,
  284;1.000000;1.000000;1.000000;1.000000;,
  285;1.000000;1.000000;1.000000;1.000000;,
  286;1.000000;1.000000;1.000000;1.000000;,
  287;1.000000;1.000000;1.000000;1.000000;,
  288;1.000000;1.000000;1.000000;1.000000;,
  289;1.000000;1.000000;1.000000;1.000000;,
  290;1.000000;1.000000;1.000000;1.000000;,
  291;1.000000;1.000000;1.000000;1.000000;,
  292;1.000000;1.000000;1.000000;1.000000;,
  293;1.000000;1.000000;1.000000;1.000000;,
  294;1.000000;1.000000;1.000000;1.000000;,
  295;1.000000;1.000000;1.000000;1.000000;,
  296;1.000000;1.000000;1.000000;1.000000;,
  297;1.000000;1.000000;1.000000;1.000000;,
  298;1.000000;1.000000;1.000000;1.000000;,
  299;1.000000;1.000000;1.000000;1.000000;,
  300;1.000000;1.000000;1.000000;1.000000;,
  301;1.000000;1.000000;1.000000;1.000000;,
  302;1.000000;1.000000;1.000000;1.000000;,
  303;1.000000;1.000000;1.000000;1.000000;,
  304;1.000000;1.000000;1.000000;1.000000;,
  305;1.000000;1.000000;1.000000;1.000000;,
  306;1.000000;1.000000;1.000000;1.000000;,
  307;1.000000;1.000000;1.000000;1.000000;,
  308;1.000000;1.000000;1.000000;1.000000;,
  309;1.000000;1.000000;1.000000;1.000000;,
  310;1.000000;1.000000;1.000000;1.000000;,
  311;1.000000;1.000000;1.000000;1.000000;,
  312;1.000000;1.000000;1.000000;1.000000;;
 }
}
